Time,Input,Output,Temperature,Drive
0,0,0,20,0.3
0.000226757,0.154617,0.0481376,23.4726,0.3
0.000453515,0.296936,0.0985374,29.8784,0.3
0.000680272,0.416303,0.146897,36.6298,0.3
0.000907029,0.505095,0.187201,42.5144,0.3
0.00113379,0.559608,0.214717,46.9273,0.3
0.00136054,0.580346,0.227362,49.6215,0.3
0.0015873,0.571643,0.225868,50.616,0.3
0.00181406,0.54072,0.213589,50.3559,0.3
0.00204082,0.496342,0.194915,49.3376,0.3
0.00226757,0.447314,0.173705,47.6922,0.3
0.00249433,0.401071,0.153418,45.6694,0.3
0.00272109,0.362602,0.13639,43.5499,0.3
0.00294785,0.333869,0.123534,41.5716,0.3
0.0031746,0.31381,0.114435,39.8801,0.3
0.00340136,0.29889,0.107686,38.5065,0.3
0.00362812,0.284072,0.101322,37.3714,0.3
0.00385488,0.264028,0.0932928,36.3125,0.3
0.00408163,0.234324,0.0819283,35.1265,0.3
0.00430839,0.192393,0.0663538,33.6184,0.3
0.00453515,0.13808,0.0467503,31.646,0.3
0.0047619,0.0736974,0.0243529,29.1529,0.3
0.00498866,0.00356312,0.00114237,26.1826,0.3
0.00521542,-0.0668557,-0.0210637,24.5326,0.3
0.00544218,-0.132035,-0.041973,25.4236,0.3
0.00566893,-0.187497,-0.0610514,27.8052,0.3
0.00589569,-0.230702,-0.0769912,30.316,0.3
0.00612245,-0.261551,-0.0890669,32.4317,0.3
0.00634921,-0.282386,-0.0976021,34.0212,0.3
0.00657596,-0.297492,-0.103911,35.1667,0.3
0.00680272,-0.312162,-0.109927,36.0729,0.3
0.00702948,-0.331514,-0.117689,36.997,0.3
0.00725624,-0.359285,-0.128839,38.1808,0.3
0.00748299,-0.396816,-0.144208,39.7888,0.3
0.00770975,-0.442458,-0.163497,41.8596,0.3
0.00793651,-0.491509,-0.185074,44.2798,0.3
0.00816326,-0.536736,-0.205955,46.7856,0.3
0.00839002,-0.569413,-0.222092,48.9941,0.3
0.00861678,-0.580701,-0.229031,50.4581,0.3
0.00884354,-0.563159,-0.222902,50.7693,0.3
0.00907029,-0.512116,-0.202079,50.0307,0.3
0.00929705,-0.426656,-0.166314,48.0388,0.3
0.00952381,-0.310063,-0.117879,44.5856,0.3
0.00975057,-0.169602,-0.0619213,39.6697,0.3
0.00997732,-0.0156761,-0.00540769,33.4899,0.3
0.0102041,0.139508,0.0463471,29.7373,0.3
0.0104308,0.283575,0.0957484,31.6054,0.3
0.0106576,0.405642,0.14344,36.8203,0.3
0.0108844,0.497727,0.184155,42.2784,0.3
0.0111111,0.555716,0.212804,46.6636,0.3
0.0113379,0.579695,0.226832,49.4662,0.3
0.0115646,0.57365,0.226605,50.6004,0.3
0.0117914,0.544569,0.21518,50.4235,0.3
0.0120181,0.501129,0.196967,49.4751,0.3
0.0122449,0.452199,0.175839,47.8808,0.3
0.0124717,0.405407,0.15533,45.882,0.3
0.0126984,0.36602,0.13791,43.7598,0.3
0.0129252,0.336314,0.124635,41.7587,0.3
0.0131519,0.315512,0.115211,40.0349,0.3
0.0133787,0.300288,0.108309,38.6313,0.3
0.0136054,0.285705,0.102001,37.4785,0.3
0.0138322,0.266407,0.0942237,36.4208,0.3
0.014059,0.237822,0.0832481,35.2568,0.3
0.0142857,0.197162,0.068105,33.7884,0.3
0.0145125,0.144023,0.0488648,31.8665,0.3
0.0147392,0.0804804,0.0266663,29.4253,0.3
0.014966,0.0106863,0.00343733,26.498,0.3
0.0151927,-0.0599606,-0.0189016,24.5812,0.3
0.0154195,-0.125891,-0.0399425,25.234,0.3
0.0156463,-0.182477,-0.0592644,27.5474,0.3
0.015873,-0.226955,-0.0755663,30.078,0.3
0.0160998,-0.258972,-0.0880321,32.2436,0.3
0.0163265,-0.280642,-0.0968765,33.8847,0.3
0.0165533,-0.296091,-0.103328,35.0668,0.3
0.01678,-0.310561,-0.109279,35.9858,0.3
0.0170068,-0.329244,-0.116782,36.8965,0.3
0.0172336,-0.356067,-0.127539,38.0452,0.3
0.0174603,-0.392645,-0.142479,39.6067,0.3
0.0176871,-0.437639,-0.161426,41.6336,0.3
0.0179138,-0.486639,-0.182888,44.0284,0.3
0.0181406,-0.532627,-0.204007,46.5413,0.3
0.0183673,-0.566967,-0.220819,48.7991,0.3
0.0185941,-0.580764,-0.228872,50.3581,0.3
0.0188209,-0.566372,-0.224165,50.7882,0.3
0.0190476,-0.518788,-0.204845,50.1558,0.3
0.0192744,-0.436694,-0.170524,48.302,0.3
0.0195011,-0.32295,-0.123167,44.9985,0.3
0.0197279,-0.18445,-0.0676653,40.2231,0.3
0.0199546,-0.0313395,-0.0108802,34.1556,0.3
0.0201814,0.124286,0.0413444,29.8533,0.3
0.0204082,0.269992,0.0908205,31.1933,0.3
0.0206349,0.394676,0.138884,36.2551,0.3
0.0208617,0.490015,0.180557,41.7672,0.3
0.0210884,0.55148,0.210577,46.2918,0.3
0.0213152,0.578741,0.226097,49.262,0.3
0.0215419,0.575425,0.227206,50.5585,0.3
0.0217687,0.548274,0.216691,50.477,0.3
0.0219955,0.505863,0.198984,49.6021,0.3
0.0222222,0.457108,0.177976,48.0631,0.3
0.022449,0.40982,0.157273,46.0921,0.3
0.0226757,0.369538,0.139472,43.9701,0.3
0.0229025,0.33885,0.125776,41.9481,0.3
0.0231293,0.317271,0.116012,40.1928,0.3
0.023356,0.301693,0.108938,38.7585,0.3
0.0235828,0.287291,0.102666,37.5865,0.3
0.0238095,0.268691,0.0951219,36.5279,0.3
0.0240363,0.241196,0.0845252,35.3839,0.3
0.024263,0.201805,0.0698142,33.9538,0.3
0.0244898,0.14986,0.0509491,32.0819,0.3
0.0247166,0.0871999,0.0289692,29.6928,0.3
0.0249433,0.0178009,0.00574429,26.8097,0.3
0.0251701,-0.0530173,-0.0167257,24.6519,0.3
0.0253968,-0.119652,-0.0378957,25.0601,0.3
0.0256236,-0.177334,-0.0574467,27.2911,0.3
0.0258503,-0.22308,-0.074102,29.8359,0.3
0.0260771,-0.256288,-0.0869603,32.0501,0.3
0.0263039,-0.278834,-0.0961264,33.7435,0.3
0.0265306,-0.294679,-0.102739,34.9643,0.3
0.0267574,-0.309003,-0.108646,35.8986,0.3
0.0269841,-0.327059,-0.115908,36.7983,0.3
0.0272109,-0.352949,-0.126282,37.9137,0.3
0.0274376,-0.38856,-0.140791,39.4292,0.3
0.0276644,-0.432862,-0.159382,41.4115,0.3
0.0278912,-0.48174,-0.180699,43.7783,0.3
0.0281179,-0.528401,-0.202016,46.2944,0.3
0.0283447,-0.564314,-0.219458,48.5971,0.3
0.0285714,-0.580543,-0.228584,50.2466,0.3
0.0287982,-0.56925,-0.225284,50.799,0.3
0.0290249,-0.525112,-0.207459,50.2686,0.3
0.0292517,-0.446412,-0.1746,48.5505,0.3
0.0294785,-0.335585,-0.128372,45.3964,0.3
0.0297052,-0.19915,-0.0733962,40.7634,0.3
0.029932,-0.0469771,-0.016411,34.8118,0.3
0.0301587,0.108964,0.0363121,30.0188,0.3
0.0303855,0.256196,0.0858843,30.8169,0.3
0.0306122,0.383414,0.134265,35.693,0.3
0.030839,0.48196,0.176841,41.2455,0.3
0.0310658,0.546898,0.208203,45.904,0.3
0.0312925,0.577478,0.225217,49.0408,0.3
0.0315193,0.57696,0.227687,50.5013,0.3
0.031746,0.551826,0.21813,50.5228,0.3
0.0319728,0.510534,0.200968,49.7225,0.3
0.0321995,0.462034,0.180118,48.241,0.3
0.0324263,0.414304,0.159246,46.3007,0.3
0.0326531,0.373154,0.141077,44.1815,0.3
0.0328798,0.341479,0.126956,42.1403,0.3
0.0331066,0.319091,0.11684,40.3539,0.3
0.0333333,0.303111,0.109576,38.8884,0.3
0.0335601,0.288833,0.103317,37.6956,0.3
0.0337868,0.270885,0.0959891,36.6342,0.3
0.0340136,0.24445,0.0857603,35.5081,0.3
0.0342404,0.20632,0.071481,34.1147,0.3
0.0344671,0.155588,0.0530015,32.2919,0.3
0.0346939,0.0938507,0.0312593,29.9552,0.3
0.0349206,0.0249,0.0080606,27.1176,0.3
0.0351474,-0.046032,-0.0145368,24.7461,0.3
0.0353741,-0.113322,-0.0358339,24.9044,0.3
0.0356009,-0.172069,-0.0555995,27.0371,0.3
0.0358277,-0.219078,-0.072599,29.5902,0.3
0.0360544,-0.253494,-0.0858505,31.8512,0.3
0.0362812,-0.276959,-0.0953502,33.5975,0.3
0.0365079,-0.293253,-0.102143,34.8589,0.3
0.0367347,-0.307483,-0.108027,35.811,0.3
0.0369615,-0.324953,-0.115066,36.7024,0.3
0.0371882,-0.349932,-0.125068,37.7864,0.3
0.037415,-0.384564,-0.139145,39.2566,0.3
0.0376417,-0.428133,-0.157366,41.1933,0.3
0.0378685,-0.476821,-0.178511,43.5298,0.3
0.0380952,-0.524069,-0.199987,46.0456,0.3
0.038322,-0.561464,-0.218014,48.3886,0.3
0.0385488,-0.580045,-0.22817,50.124,0.3
0.0387755,-0.571795,-0.226263,50.8021,0.3
0.0390023,-0.531088,-0.209921,50.3692,0.3
0.039229,-0.455804,-0.178541,48.7845,0.3
0.0394558,-0.347963,-0.133488,45.7795,0.3
0.0396825,-0.213691,-0.0791069,41.2904,0.3
0.0399093,-0.0625773,-0.0219941,35.4581,0.3
0.0401361,0.0935533,0.031248,30.2365,0.3
0.0403628,0.2422,0.0809445,30.4815,0.3
0.0405896,0.371863,0.129588,35.136,0.3
0.0408163,0.473565,0.17301,40.7141,0.3
0.0410431,0.541969,0.205683,45.5007,0.3
0.0412698,0.575901,0.224188,48.8026,0.3
0.0414966,0.578247,0.228044,50.4285,0.3
0.0417234,0.555216,0.219494,50.561,0.3
0.0419501,0.515133,0.202916,49.8359,0.3
0.0421769,0.466968,0.18226,48.4142,0.3
0.0424036,0.418858,0.161247,46.5075,0.3
0.0426304,0.376867,0.142723,44.3937,0.3
0.0428571,0.344203,0.128178,42.3351,0.3
0.0430839,0.320978,0.117698,40.5183,0.3
0.0433107,0.304546,0.110224,39.021,0.3
0.0435374,0.290339,0.103957,37.8061,0.3
0.0437642,0.272993,0.0968264,36.7398,0.3
0.0439909,0.247585,0.0869542,35.6297,0.3
0.0442177,0.210706,0.0731047,34.2713,0.3
0.0444444,0.161203,0.0550203,32.4967,0.3
0.0446712,0.100429,0.0335349,30.2125,0.3
0.044898,0.0319808,0.010385,27.4216,0.3
0.0451247,-0.03901,-0.012335,24.8651,0.3
0.0453515,-0.106905,-0.0337583,24.7694,0.3
0.0455782,-0.166685,-0.0537243,26.7865,0.3
0.045805,-0.214948,-0.0710575,29.3412,0.3
0.0460317,-0.250591,-0.0847025,31.6469,0.3
0.0462585,-0.27501,-0.0945462,33.4466,0.3
0.0464853,-0.291806,-0.101538,34.7503,0.3
0.046712,-0.305998,-0.107421,35.7229,0.3
0.0469388,-0.322924,-0.114254,36.6085,0.3
0.0471655,-0.347013,-0.123895,37.663,0.3
0.0473923,-0.380661,-0.137542,39.0888,0.3
0.047619,-0.423457,-0.155381,40.9792,0.3
0.0478458,-0.471888,-0.176328,43.2832,0.3
0.0480726,-0.519637,-0.197924,45.795,0.3
0.0482993,-0.558424,-0.21649,48.174,0.3
0.0485261,-0.579276,-0.227634,49.9908,0.3
0.0487528,-0.574014,-0.227095,50.7938,0.3
0.0489796,-0.536712,-0.212229,50.4583,0.3
0.0492063,-0.464868,-0.182342,49.0042,0.3
0.0494331,-0.360071,-0.138508,46.1475,0.3
0.0496599,-0.228064,-0.0847906,41.8038,0.3
0.0498866,-0.078126,-0.027622,36.0941,0.3
0.0501134,0.0780692,0.0261497,30.5095,0.3
0.0503401,0.228008,0.0760023,30.1928,0.3
0.0505669,0.360027,0.124858,34.5863,0.3
0.0507937,0.464835,0.16907,40.1741,0.3
0.0510204,0.536692,0.203019,45.0822,0.3
0.0512472,0.574005,0.223011,48.5473,0.3
0.0514739,0.579278,0.228274,50.3399,0.3
0.0517007,0.558434,0.220779,50.5914,0.3
0.0519274,0.519654,0.204823,49.9421,0.3
0.0521542,0.471906,0.184399,48.5826,0.3
0.052381,0.423474,0.163274,46.7123,0.3
0.0526077,0.380676,0.14441,44.6066,0.3
0.0528345,0.347024,0.129441,42.5325,0.3
0.0530612,0.322933,0.118587,40.686,0.3
0.053288,0.306004,0.110883,39.1567,0.3
0.0535147,0.291813,0.104589,37.9182,0.3
0.0537415,0.275018,0.0976358,36.8451,0.3
0.0539683,0.250602,0.0881071,35.7487,0.3
0.054195,0.214964,0.0746852,34.4236,0.3
0.0544218,0.166705,0.0570048,32.6964,0.3
0.0546485,0.106928,0.0357931,30.4647,0.3
0.0548753,0.0390343,0.0127143,27.7214,0.3
0.055102,-0.0319545,-0.0101197,25.0103,0.3
0.0553288,-0.100405,-0.0316698,24.6578,0.3
0.0555556,-0.161183,-0.0518225,26.5403,0.3
0.0557823,-0.21069,-0.0694783,29.0893,0.3
0.0560091,-0.247572,-0.0835152,31.4374,0.3
0.0562358,-0.272984,-0.0937129,33.2905,0.3
0.0564626,-0.290332,-0.100922,34.6384,0.3
0.0566893,-0.30454,-0.106823,35.6339,0.3
0.0569161,-0.320969,-0.113471,36.5163,0.3
0.0571429,-0.344192,-0.122763,37.5435,0.3
0.0573696,-0.376852,-0.135982,38.9257,0.3
0.0575964,-0.41884,-0.153428,40.7694,0.3
0.0578231,-0.466951,-0.174152,43.0388,0.3
0.0580499,-0.515118,-0.195832,45.5432,0.3
0.0582766,-0.555205,-0.214893,47.9538,0.3
0.0585034,-0.578243,-0.22698,49.8474,0.3
0.0587302,-0.575909,-0.227777,50.7712,0.3
0.0589569,-0.541988,-0.214385,50.536,0.3
0.0591837,-0.473599,-0.186001,49.2096,0.3
0.0594104,-0.371905,-0.143428,46.5004,0.3
0.0596372,-0.242251,-0.0904378,42.3034,0.3
0.0598639,-0.0936113,-0.0332881,36.7193,0.3
0.0600907,0.0625188,0.0210118,30.8409,0.3
0.0603175,0.213637,0.071062,29.9572,0.3
0.0605442,0.347918,0.120084,34.0467,0.3
0.060771,0.455768,0.165024,39.6264,0.3
0.0609977,0.531065,0.200212,44.6488,0.3
0.0612245,0.571786,0.221684,48.2751,0.3
0.0614512,0.580045,0.228374,50.2353,0.3
0.061678,0.561474,0.221982,50.6144,0.3
0.0619048,0.524084,0.206685,50.0412,0.3
0.0621315,0.476838,0.186532,48.7458,0.3
0.0623583,0.42815,0.165325,46.9147,0.3
0.062585,0.38458,0.146137,44.8198,0.3
0.0628118,0.349944,0.130747,42.7322,0.3
0.0630386,0.324961,0.119507,40.857,0.3
0.0632653,0.30749,0.111558,39.2953,0.3
0.0634921,0.29326,0.105214,38.0319,0.3
0.0637188,0.276968,0.0984193,36.9501,0.3
0.0639456,0.253506,0.0892203,35.8653,0.3
0.0641723,0.219094,0.0762221,34.5719,0.3
0.0643991,0.172089,0.0589528,32.8909,0.3
0.0646259,0.113344,0.0380319,30.7116,0.3
0.0648526,0.0460565,0.0150466,28.017,0.3
0.0650794,-0.0248763,-0.00789254,25.1833,0.3
0.0653061,-0.0938259,-0.0295693,24.5729,0.3
0.0655329,-0.155567,-0.0498954,26.2998,0.3
0.0657596,-0.206303,-0.067862,28.835,0.3
0.0659864,-0.244437,-0.0822888,31.2227,0.3
0.0662132,-0.270877,-0.0928495,33.1292,0.3
0.0664399,-0.288827,-0.100292,34.5228,0.3
0.0666667,-0.303104,-0.106233,35.5437,0.3
0.0668934,-0.319082,-0.112714,36.4256,0.3
0.0671202,-0.341468,-0.121671,37.4276,0.3
0.0673469,-0.373139,-0.134465,38.7674,0.3
0.0675737,-0.414287,-0.151509,40.564,0.3
0.0678005,-0.462016,-0.171987,42.7968,0.3
0.0680272,-0.510518,-0.193714,45.2905,0.3
0.068254,-0.551815,-0.213225,47.7285,0.3
0.0684807,-0.576956,-0.226213,49.6943,0.3
0.0687075,-0.577484,-0.228312,50.7348,0.3
0.0689342,-0.546917,-0.21639,50.6028,0.3
0.069161,-0.48199,-0.189515,49.401,0.3
0.0693878,-0.383456,-0.148241,46.8383,0.3
0.0696145,-0.256248,-0.0960428,42.7889,0.3
0.0698413,-0.109017,-0.0389842,37.3334,0.3
0.070068,0.0469185,0.0158312,31.2339,0.3
0.0702948,0.199095,0.0661235,29.7816,0.3
0.0705215,0.335538,0.115268,33.5197,0.3
0.0707483,0.446377,0.160881,39.0723,0.3
0.0709751,0.525089,0.197265,44.201,0.3
0.0712018,0.569239,0.220207,47.986,0.3
0.0714286,0.580544,0.228341,50.1145,0.3
0.0716553,0.564324,0.223098,50.6299,0.3
0.0718821,0.528417,0.208498,50.1328,0.3
0.0721088,0.481758,0.188655,48.9036,0.3
0.0723356,0.432879,0.167398,47.1144,0.3
0.0725624,0.388575,0.147904,45.0332,0.3
0.0727891,0.352962,0.132095,42.9341,0.3
0.0730159,0.327067,0.120461,41.0313,0.3
0.0732426,0.30901,0.112249,39.4369,0.3
0.0734694,0.294687,0.105834,38.1475,0.3
0.0736961,0.278842,0.0991776,37.055,0.3
0.0739229,0.256298,0.0902949,35.9799,0.3
0.0741497,0.223096,0.0777153,34.7162,0.3
0.0743764,0.177352,0.0608631,33.0803,0.3
0.0746032,0.119674,0.0402499,30.9533,0.3
0.0748299,0.053044,0.0173804,28.3081,0.3
0.0750567,-0.0177741,-0.00565125,25.3855,0.3
0.0752834,-0.0871757,-0.0274587,24.518,0.3
0.0755102,-0.149839,-0.0479447,26.0664,0.3
0.075737,-0.201788,-0.0662096,28.5788,0.3
0.0759637,-0.241184,-0.0810231,31.003,0.3
0.0761905,-0.268682,-0.0919537,32.9627,0.3
0.0764172,-0.287284,-0.0996462,34.4035,0.3
0.076644,-0.301687,-0.105649,35.4521,0.3
0.0768707,-0.317264,-0.111984,36.3361,0.3
0.0770975,-0.338839,-0.120618,37.3151,0.3
0.0773243,-0.369523,-0.132992,38.6138,0.3
0.077551,-0.409803,-0.149625,40.3631,0.3
0.0777778,-0.457091,-0.169835,42.5576,0.3
0.0780045,-0.505845,-0.191574,45.0374,0.3
0.0782313,-0.548261,-0.211492,47.4985,0.3
0.078458,-0.575419,-0.225335,49.5318,0.3
0.0786848,-0.578746,-0.228702,50.6848,0.3
0.0789116,-0.551497,-0.218243,50.6591,0.3
0.0791383,-0.490044,-0.192882,49.5786,0.3
0.0793651,-0.394717,-0.152942,47.1612,0.3
0.0795918,-0.270047,-0.1016,43.2602,0.3
0.0798186,-0.124344,-0.0447074,37.9361,0.3
0.0800453,0.03128,0.0106027,31.6921,0.3
0.0802721,0.184394,0.0611876,29.6739,0.3
0.0804989,0.322903,0.110421,33.0085,0.3
0.0807256,0.436658,0.156643,38.513,0.3
0.0809524,0.518764,0.194182,43.7393,0.3
0.0811791,0.566362,0.21858,47.68,0.3
0.0814059,0.580764,0.228173,49.9772,0.3
0.0816327,0.566976,0.224126,50.6381,0.3
0.0818594,0.532642,0.210259,50.2169,0.3
0.0820862,0.486657,0.190765,49.0557,0.3
0.0823129,0.437656,0.169489,47.3113,0.3
0.0825397,0.39266,0.149709,45.2464,0.3
0.0827664,0.356078,0.133485,43.1381,0.3
0.0829932,0.329254,0.121451,41.2087,0.3
0.08322,0.310569,0.112958,39.5818,0.3
0.0834467,0.296099,0.106452,38.2652,0.3
0.0836735,0.28065,0.0999139,37.1602,0.3
0.0839002,0.258982,0.0913318,36.0926,0.3
0.084127,0.22697,0.079165,34.8567,0.3
0.0843537,0.182495,0.0627351,33.2648,0.3
0.0845805,0.125914,0.0424452,31.1898,0.3
0.0848073,0.0599859,0.0197118,28.5948,0.3
0.085034,-0.0106613,-0.00339805,25.6185,0.3
0.0852608,-0.0804569,-0.0253377,24.497,0.3
0.0854875,-0.144002,-0.0459721,25.8413,0.3
0.0857143,-0.197146,-0.0645223,28.3212,0.3
0.085941,-0.237809,-0.0797172,30.7783,0.3
0.0861678,-0.266397,-0.0910244,32.7909,0.3
0.0863946,-0.285697,-0.0989833,34.2801,0.3
0.0866213,-0.300282,-0.105069,35.3588,0.3
0.0868481,-0.315504,-0.111276,36.2476,0.3
0.0870748,-0.336303,-0.119604,37.2059,0.3
0.0873016,-0.366007,-0.131563,38.4648,0.3
0.0875283,-0.405391,-0.147779,40.1668,0.3
0.0877551,-0.452181,-0.167699,42.3214,0.3
0.0879819,-0.501112,-0.189417,44.7842,0.3
0.0882086,-0.544556,-0.209699,47.2642,0.3
0.0884354,-0.573645,-0.224353,49.3606,0.3
0.0886621,-0.5797,-0.22895,50.6217,0.3
0.0888889,-0.555731,-0.219946,50.7053,0.3
0.0891156,-0.497755,-0.196102,49.7426,0.3
0.0893424,-0.405684,-0.157528,47.469,0.3
0.0895692,-0.283625,-0.107098,43.7172,0.3
0.0897959,-0.139564,-0.0504453,38.5269,0.3
0.0900227,0.0156177,0.00532136,32.2187,0.3
0.0902494,0.169549,0.0562546,29.6424,0.3
0.0904762,0.310017,0.105545,32.5163,0.3
0.090703,0.426619,0.152317,37.9499,0.3
0.0909297,0.512088,0.190964,43.2642,0.3
0.0911565,0.563146,0.216802,47.3572,0.3
0.0913832,0.580699,0.227866,49.8234,0.3
0.09161,0.56942,0.225062,50.6392,0.3
0.0918367,0.53675,0.211962,50.2935,0.3
0.0920635,0.491526,0.192857,49.2018,0.3
0.0922903,0.442476,0.171596,47.505,0.3
0.092517,0.396833,0.15155,45.4593,0.3
0.0927438,0.359297,0.13492,43.3439,0.3
0.0929705,0.331524,0.122476,41.3892,0.3
0.0931973,0.312169,0.113687,39.7298,0.3
0.093424,0.297498,0.107069,38.385,0.3
0.0936508,0.282394,0.100629,37.2658,0.3
0.0938776,0.261561,0.0923319,36.2036,0.3
0.0941043,0.230718,0.0805712,34.9936,0.3
0.0943311,0.187516,0.0645683,33.4443,0.3
0.0945578,0.132058,0.0446152,31.4209,0.3
0.0947846,0.0668812,0.0220397,28.8767,0.3
0.0950113,-0.00353758,-0.00113066,25.884,0.3
0.0952381,-0.0736731,-0.0232041,24.505,0.3
0.0954649,-0.138059,-0.0439784,25.6262,0.3
0.0956916,-0.192375,-0.0627999,28.0628,0.3
0.0959184,-0.23431,-0.0783712,30.549,0.3
0.0961451,-0.264018,-0.0900613,32.6136,0.3
0.0963719,-0.284066,-0.0983022,34.1526,0.3
0.0965986,-0.298884,-0.104489,35.2636,0.3
0.0968254,-0.313803,-0.11059,36.1599,0.3
0.0970522,-0.333861,-0.118627,37.0998,0.3
0.0972789,-0.362589,-0.130176,38.3203,0.3
0.0975057,-0.401055,-0.14597,39.9751,0.3
0.0977324,-0.447295,-0.165583,42.0884,0.3
0.0979592,-0.496324,-0.187246,44.5312,0.3
0.0981859,-0.540706,-0.207849,47.0261,0.3
0.0984127,-0.571636,-0.223269,49.1809,0.3
0.0986395,-0.580348,-0.229058,50.5459,0.3
0.0988662,-0.559622,-0.2215,50.7419,0.3
0.099093,-0.505123,-0.199172,49.8934,0.3
0.0993197,-0.416345,-0.161992,47.7618,0.3
0.0995465,-0.296985,-0.112533,44.1595,0.3
0.0997732,-0.154673,-0.056193,39.1056,0.3
0.1,-5.88258e-05,-2.01611e-05,32.8177,0.3
0.100227,0.154563,0.0513049,29.6681,0.3
0.100454,0.296888,0.100646,32.0468,0.3
0.10068,0.416262,0.147907,37.3843,0.3
0.100907,0.505068,0.187617,42.7763,0.3
0.101134,0.559594,0.214873,47.0179,0.3
0.101361,0.580344,0.227419,49.6528,0.3
0.101587,0.571651,0.225891,50.6271,0.3
0.101814,0.540734,0.213606,50.3624,0.3
0.102041,0.496359,0.194928,49.3418,0.3
0.102268,0.447332,0.173716,47.6951,0.3
0.102494,0.401088,0.153427,45.6715,0.3
0.102721,0.362617,0.136397,43.5515,0.3
0.102948,0.33388,0.123539,41.5728,0.3
0.103175,0.313818,0.114439,39.881,0.3
0.103401,0.298898,0.107689,38.5072,0.3
0.103628,0.28408,0.101325,37.372,0.3
0.103855,0.264039,0.0932971,36.313,0.3
0.104082,0.234338,0.0819335,35.1271,0.3
0.104308,0.19241,0.0663601,33.619,0.3
0.104535,0.138102,0.046758,31.6468,0.3
0.104762,0.0737209,0.0243609,29.154,0.3
0.104989,0.00358675,0.00114996,26.1838,0.3
0.105215,-0.0668321,-0.0210563,24.5327,0.3
0.105442,-0.132012,-0.0419653,25.4229,0.3
0.105669,-0.187479,-0.0610448,27.8043,0.3
0.105896,-0.230689,-0.0769861,30.3152,0.3
0.106122,-0.26154,-0.0890625,32.4309,0.3
0.106349,-0.282379,-0.097599,34.0206,0.3
0.106576,-0.297487,-0.103909,35.1662,0.3
0.106803,-0.312153,-0.109924,36.0725,0.3
0.107029,-0.331503,-0.117684,36.9966,0.3
0.107256,-0.359271,-0.128834,38.1803,0.3
0.107483,-0.396801,-0.144201,39.7881,0.3
0.10771,-0.44244,-0.163489,41.8588,0.3
0.107937,-0.491492,-0.185066,44.2788,0.3
0.108163,-0.536723,-0.205948,46.7847,0.3
0.10839,-0.569406,-0.222088,48.9934,0.3
0.108617,-0.580703,-0.229032,50.4578,0.3
0.108844,-0.563173,-0.222908,50.7695,0.3
0.10907,-0.512141,-0.202089,50.0312,0.3
0.109297,-0.426696,-0.166331,48.0398,0.3
0.109524,-0.310111,-0.117898,44.5872,0.3
0.109751,-0.169653,-0.0619412,39.6718,0.3
0.109977,-0.0157338,-0.00542771,33.4924,0.3
